  3.3947456e+001
  3.3947456e+001
  3.3947456e+001
  3.3947456e+001
  3.3947456e+001
  3.3947456e+001
  3.3947456e+001
  3.3947456e+001
  3.8947456e+001
  3.5947456e+001
  3.3947456e+001
  3.2947456e+001
  3.0947456e+001
  3.1947456e+001
  3.0947456e+001
  2.7947456e+001
  2.6947456e+001
  2.5947456e+001
  2.8947456e+001
  3.1947456e+001
  2.7947456e+001
  2.6947456e+001
  2.4947456e+001
  2.6947456e+001
  3.1947456e+001
  3.5947456e+001
  3.1947456e+001
  2.4947456e+001
  2.1947456e+001
  1.5947456e+001
  1.7947456e+001
  1.3947456e+001
  1.2947456e+001
  1.0947456e+001
  7.9474563e+000
  7.9474563e+000
  7.9474563e+000
  9.9474563e+000
  1.1947456e+001
  9.9474563e+000
  7.9474563e+000
  4.9474563e+000
  4.9474563e+000
  4.9474563e+000
  4.9474563e+000
  5.9474563e+000
  3.9474563e+000
  1.9474563e+000
  5.9474563e+000
  7.9474563e+000
  7.9474563e+000
  6.9474563e+000
  5.9474563e+000
  1.9474563e+000
  4.9474563e+000
  2.9474563e+000
  6.9474563e+000
  4.9474563e+000
  2.9474563e+000
 -5.2543651e-002
 -1.0525437e+000
 -4.0525437e+000
 -9.0525437e+000
 -1.4052544e+001
 -1.4052544e+001
 -1.8052544e+001
 -2.8052544e+001
 -3.4052544e+001
 -3.4052544e+001
 -2.2052544e+001
 -3.0525437e+000
  1.8947456e+001
  4.8947456e+001
  8.6947456e+001
  1.3794746e+002
  1.8694746e+002
  2.1894746e+002
  2.3094746e+002
  2.1594746e+002
  1.6694746e+002
  9.6947456e+001
  2.9947456e+001
 -1.0052544e+001
 -2.4052544e+001
 -2.2052544e+001
 -1.1052544e+001
 -3.0525437e+000
 -2.0525437e+000
 -4.0525437e+000
 -6.0525437e+000
 -3.0525437e+000
 -2.0525437e+000
 -5.2543651e-002
  9.4745635e-001
 -1.0525437e+000
 -4.0525437e+000
 -5.0525437e+000
 -2.0525437e+000
 -6.0525437e+000
 -4.0525437e+000
 -3.0525437e+000
 -4.0525437e+000
 -3.0525437e+000
 -2.0525437e+000
 -3.0525437e+000
 -3.0525437e+000
 -6.0525437e+000
 -8.0525437e+000
 -4.0525437e+000
 -2.0525437e+000
  1.9474563e+000
 -1.0525437e+000
 -1.0525437e+000
 -3.0525437e+000
 -5.0525437e+000
 -4.0525437e+000
 -5.0525437e+000
 -6.0525437e+000
 -8.0525437e+000
 -8.0525437e+000
 -5.0525437e+000
 -3.0525437e+000
 -3.0525437e+000
 -3.0525437e+000
 -5.0525437e+000
 -7.0525437e+000
 -2.0525437e+000
 -2.0525437e+000
 -3.0525437e+000
 -3.0525437e+000
 -4.0525437e+000
 -4.0525437e+000
 -5.0525437e+000
 -3.0525437e+000
 -5.0525437e+000
 -7.0525437e+000
 -8.0525437e+000
 -7.0525437e+000
 -6.0525437e+000
 -3.0525437e+000
 -1.0525437e+000
 -4.0525437e+000
 -3.0525437e+000
 -6.0525437e+000
 -3.0525437e+000
 -4.0525437e+000
 -4.0525437e+000
 -6.0525437e+000
 -6.0525437e+000
 -8.0525437e+000
 -5.0525437e+000
 -5.0525437e+000
 -4.0525437e+000
 -3.0525437e+000
 -7.0525437e+000
 -7.0525437e+000
 -6.0525437e+000
 -4.0525437e+000
 -4.0525437e+000
 -4.0525437e+000
 -7.0525437e+000
 -8.0525437e+000
 -8.0525437e+000
 -6.0525437e+000
 -6.0525437e+000
 -4.0525437e+000
 -7.0525437e+000
 -9.0525437e+000
 -9.0525437e+000
 -9.0525437e+000
 -1.0052544e+001
 -9.0525437e+000
 -1.1052544e+001
 -1.4052544e+001
 -1.1052544e+001
 -9.0525437e+000
 -8.0525437e+000
 -9.0525437e+000
 -1.2052544e+001
 -1.2052544e+001
 -1.0052544e+001
 -1.0052544e+001
 -9.0525437e+000
 -9.0525437e+000
 -1.0052544e+001
 -1.1052544e+001
 -8.0525437e+000
 -3.0525437e+000
 -2.0525437e+000
 -2.0525437e+000
 -4.0525437e+000
 -5.0525437e+000
 -5.2543651e-002
  2.9474563e+000
  2.9474563e+000
  4.9474563e+000
  3.9474563e+000
  4.9474563e+000
  5.9474563e+000
  7.9474563e+000
  1.1947456e+001
  1.2947456e+001
  1.2947456e+001
  9.9474563e+000
  1.1947456e+001
  1.3947456e+001
  1.6947456e+001
  1.3947456e+001
  1.3947456e+001
  1.1947456e+001
  1.1947456e+001
  1.4947456e+001
  1.2947456e+001
  1.1947456e+001
  1.3947456e+001
  1.1947456e+001
  1.2947456e+001
  1.2947456e+001
  9.9474563e+000
  1.0947456e+001
  1.0947456e+001
  9.9474563e+000
  8.9474563e+000
  9.9474563e+000
  1.0947456e+001
  7.9474563e+000
  6.9474563e+000
  4.9474563e+000
  7.9474563e+000
  8.9474563e+000
  1.0947456e+001
  6.9474563e+000
  6.9474563e+000
  5.9474563e+000
  7.9474563e+000
  7.9474563e+000
  9.9474563e+000
  8.9474563e+000
  5.9474563e+000
  4.9474563e+000
  6.9474563e+000
  7.9474563e+000
  5.9474563e+000
  6.9474563e+000
  2.9474563e+000
  2.9474563e+000
  1.9474563e+000
  3.9474563e+000
  2.9474563e+000
  9.4745635e-001
  9.4745635e-001
  1.9474563e+000
  3.9474563e+000
  5.9474563e+000
  5.9474563e+000
  4.9474563e+000
  3.9474563e+000
  9.4745635e-001
  4.9474563e+000
  3.9474563e+000
  2.9474563e+000
  1.9474563e+000
  9.4745635e-001
 -2.0525437e+000
  9.4745635e-001
  2.9474563e+000
  4.9474563e+000
  9.4745635e-001
 -2.0525437e+000
 -3.0525437e+000
 -5.2543651e-002
  2.9474563e+000
  1.9474563e+000
  9.4745635e-001
 -1.0525437e+000
 -3.0525437e+000
 -2.0525437e+000
 -5.2543651e-002
  9.4745635e-001
  1.9474563e+000
  1.9474563e+000
  9.4745635e-001
  2.9474563e+000
  1.9474563e+000
  4.9474563e+000
  2.9474563e+000
  2.9474563e+000
  1.9474563e+000
  1.9474563e+000
  4.9474563e+000
  6.9474563e+000
  3.9474563e+000
  1.9474563e+000
 -5.2543651e-002
  1.9474563e+000
  3.9474563e+000
  4.9474563e+000
  6.9474563e+000
  8.9474563e+000
  7.9474563e+000
  7.9474563e+000
  8.9474563e+000
  1.2947456e+001
  1.2947456e+001
  1.1947456e+001
  1.7947456e+001
  1.8947456e+001
  2.1947456e+001
  2.2947456e+001
  2.1947456e+001
  1.9947456e+001
  1.6947456e+001
  1.8947456e+001
  1.7947456e+001
  1.7947456e+001
  1.7947456e+001
  1.6947456e+001
  1.5947456e+001
  1.4947456e+001
  1.5947456e+001
  1.8947456e+001
  2.0947456e+001
  2.1947456e+001
  1.3947456e+001
  5.9474563e+000
  5.9474563e+000
  2.9474563e+000
  9.4745635e-001
 -3.0525437e+000
 -3.0525437e+000
 -2.0525437e+000
 -5.2543651e-002
 -1.0525437e+000
 -5.2543651e-002
 -2.0525437e+000
 -5.0525437e+000
 -6.0525437e+000
 -5.0525437e+000
 -5.0525437e+000
 -7.0525437e+000
 -6.0525437e+000
 -8.0525437e+000
 -3.0525437e+000
 -4.0525437e+000
 -3.0525437e+000
 -1.0525437e+000
 -6.0525437e+000
 -8.0525437e+000
 -5.0525437e+000
 -3.0525437e+000
 -2.0525437e+000
 -3.0525437e+000
 -7.0525437e+000
 -1.0052544e+001
 -9.0525437e+000
 -1.3052544e+001
 -2.2052544e+001
 -2.6052544e+001
 -3.2052544e+001
 -3.9052544e+001
 -4.4052544e+001
 -3.8052544e+001
 -2.0052544e+001
  2.9474563e+000
  3.0947456e+001
  5.9947456e+001
  1.0994746e+002
  1.6094746e+002
  2.0694746e+002
  2.3794746e+002
  2.5094746e+002
  2.4394746e+002
  2.1394746e+002
  1.6094746e+002
  9.5947456e+001
  4.0947456e+001
  8.9474563e+000
 -1.5052544e+001
 -2.7052544e+001
 -3.2052544e+001
 -2.8052544e+001
 -2.2052544e+001
 -1.5052544e+001
 -1.5052544e+001
 -1.4052544e+001
 -1.5052544e+001
 -1.3052544e+001
 -1.3052544e+001
 -1.3052544e+001
 -1.6052544e+001
 -1.4052544e+001
 -1.4052544e+001
 -1.4052544e+001
 -1.2052544e+001
 -1.6052544e+001
 -1.9052544e+001
 -1.9052544e+001
 -1.7052544e+001
 -1.6052544e+001
 -1.5052544e+001
 -1.8052544e+001
 -1.6052544e+001
 -1.4052544e+001
 -1.2052544e+001
 -1.5052544e+001
 -1.5052544e+001
 -1.8052544e+001
 -1.9052544e+001
 -1.9052544e+001
 -1.5052544e+001
 -1.5052544e+001
 -1.6052544e+001
 -1.8052544e+001
 -2.0052544e+001
 -1.7052544e+001
 -1.9052544e+001
 -1.8052544e+001
 -1.9052544e+001
 -2.0052544e+001
 -1.9052544e+001
 -1.7052544e+001
 -1.7052544e+001
 -1.6052544e+001
 -1.5052544e+001
 -1.8052544e+001
 -1.9052544e+001
 -1.5052544e+001
 -1.5052544e+001
 -1.4052544e+001
 -1.4052544e+001
 -1.9052544e+001
 -1.8052544e+001
 -1.6052544e+001
 -1.5052544e+001
 -1.2052544e+001
 -1.5052544e+001
 -1.6052544e+001
 -1.9052544e+001
 -1.7052544e+001
 -1.5052544e+001
 -1.5052544e+001
 -1.4052544e+001
 -1.8052544e+001
 -2.0052544e+001
 -2.0052544e+001
 -1.7052544e+001
 -1.6052544e+001
 -1.8052544e+001
 -2.0052544e+001
 -2.1052544e+001
 -2.1052544e+001
 -1.9052544e+001
 -2.0052544e+001
 -2.2052544e+001
 -2.1052544e+001
 -2.4052544e+001
 -2.3052544e+001
 -2.3052544e+001
 -2.1052544e+001
 -2.3052544e+001
 -2.7052544e+001
 -2.8052544e+001
 -2.7052544e+001
 -2.4052544e+001
 -2.6052544e+001
 -2.7052544e+001
 -2.8052544e+001
 -3.1052544e+001
 -2.9052544e+001
 -2.8052544e+001
 -2.7052544e+001
 -2.8052544e+001
 -3.1052544e+001
 -3.2052544e+001
 -2.9052544e+001
 -2.7052544e+001
 -2.6052544e+001
 -2.5052544e+001
 -2.4052544e+001
 -2.5052544e+001
 -1.9052544e+001
 -1.6052544e+001
 -1.1052544e+001
 -1.0052544e+001
 -9.0525437e+000
 -1.0052544e+001
 -5.0525437e+000
 -2.0525437e+000
 -5.2543651e-002
 -1.0525437e+000
 -3.0525437e+000
 -3.0525437e+000
 -1.0525437e+000
  9.4745635e-001
  2.9474563e+000
  2.9474563e+000
 -1.0525437e+000
 -1.0525437e+000
 -5.2543651e-002
  1.9474563e+000
  1.9474563e+000
  3.9474563e+000
 -1.0525437e+000
 -3.0525437e+000
  1.9474563e+000
  9.4745635e-001
  2.9474563e+000
  2.9474563e+000
 -1.0525437e+000
 -2.0525437e+000
  9.4745635e-001
  1.9474563e+000
 -5.2543651e-002
  1.9474563e+000
 -5.2543651e-002
 -5.2543651e-002
  9.4745635e-001
  3.9474563e+000
  4.9474563e+000
  1.9474563e+000
  9.4745635e-001
 -1.0525437e+000
 -5.2543651e-002
  2.9474563e+000
 -5.2543651e-002
 -5.2543651e-002
 -5.2543651e-002
 -3.0525437e+000
 -5.2543651e-002
 -1.0525437e+000
 -5.2543651e-002
 -2.0525437e+000
 -4.0525437e+000
 -5.0525437e+000
 -4.0525437e+000
 -4.0525437e+000
 -3.0525437e+000
 -2.0525437e+000
 -6.0525437e+000
 -7.0525437e+000
 -6.0525437e+000
 -4.0525437e+000
 -3.0525437e+000
 -3.0525437e+000
 -6.0525437e+000
 -6.0525437e+000
 -6.0525437e+000
 -1.0525437e+000
 -3.0525437e+000
 -4.0525437e+000
 -5.0525437e+000
 -8.0525437e+000
 -4.0525437e+000
 -3.0525437e+000
 -3.0525437e+000
 -4.0525437e+000
 -8.0525437e+000
 -9.0525437e+000
 -8.0525437e+000
 -7.0525437e+000
 -5.0525437e+000
 -6.0525437e+000
 -6.0525437e+000
 -6.0525437e+000
 -6.0525437e+000
 -3.0525437e+000
 -3.0525437e+000
 -4.0525437e+000
 -6.0525437e+000
 -7.0525437e+000
 -7.0525437e+000
 -5.0525437e+000
 -3.0525437e+000
 -6.0525437e+000
 -6.0525437e+000
 -8.0525437e+000
 -7.0525437e+000
 -5.0525437e+000
 -3.0525437e+000
 -5.0525437e+000
 -5.0525437e+000
 -5.0525437e+000
 -3.0525437e+000
 -4.0525437e+000
 -3.0525437e+000
 -4.0525437e+000
 -6.0525437e+000
 -6.0525437e+000
 -5.0525437e+000
 -3.0525437e+000
 -5.2543651e-002
  3.9474563e+000
  2.9474563e+000
  3.9474563e+000
  5.9474563e+000
  7.9474563e+000
  9.9474563e+000
  9.9474563e+000
  9.9474563e+000
  1.1947456e+001
  1.2947456e+001
  1.4947456e+001
  1.7947456e+001
  1.9947456e+001
  1.4947456e+001
  1.3947456e+001
  1.4947456e+001
  1.3947456e+001
  1.5947456e+001
  1.3947456e+001
  1.2947456e+001
  7.9474563e+000
  7.9474563e+000
  9.9474563e+000
  1.2947456e+001
  1.7947456e+001
  1.8947456e+001
  1.6947456e+001
  9.9474563e+000
  8.9474563e+000
  6.9474563e+000
  5.9474563e+000
  1.9474563e+000
 -1.0525437e+000
 -5.0525437e+000
 -3.0525437e+000
 -4.0525437e+000
 -4.0525437e+000
 -8.0525437e+000
 -1.1052544e+001
 -9.0525437e+000
 -6.0525437e+000
 -7.0525437e+000
 -8.0525437e+000
 -1.0052544e+001
 -1.2052544e+001
 -1.3052544e+001
 -1.1052544e+001
 -1.0052544e+001
 -1.0052544e+001
 -1.3052544e+001
 -1.4052544e+001
 -1.3052544e+001
 -1.2052544e+001
 -8.0525437e+000
 -1.1052544e+001
 -1.5052544e+001
 -1.8052544e+001
 -1.9052544e+001
 -2.4052544e+001
 -3.0052544e+001
 -3.5052544e+001
 -4.1052544e+001
 -4.8052544e+001
 -5.1052544e+001
 -4.2052544e+001
 -1.8052544e+001
  1.2947456e+001
  4.4947456e+001
  8.6947456e+001
  1.4494746e+002
  2.0094746e+002
  2.3994746e+002
  2.5494746e+002
  2.3294746e+002
  1.6694746e+002
  7.2947456e+001
 -1.0525437e+000
 -3.7052544e+001
 -3.8052544e+001
 -2.6052544e+001
 -2.0052544e+001
 -1.6052544e+001
 -1.5052544e+001
 -1.6052544e+001
 -1.5052544e+001
 -1.6052544e+001
 -1.8052544e+001
 -1.6052544e+001
 -1.8052544e+001
 -1.5052544e+001
 -1.6052544e+001
 -1.6052544e+001
 -1.9052544e+001
 -1.8052544e+001
 -1.7052544e+001
 -1.7052544e+001
 -2.0052544e+001
 -1.8052544e+001
 -2.1052544e+001
 -2.0052544e+001
 -1.8052544e+001
 -1.8052544e+001
 -2.1052544e+001
 -2.1052544e+001
 -2.4052544e+001
 -2.1052544e+001
 -1.9052544e+001
 -1.9052544e+001
 -1.8052544e+001
 -2.2052544e+001
 -2.3052544e+001
 -2.1052544e+001
 -2.0052544e+001
 -1.9052544e+001
 -1.9052544e+001
 -2.2052544e+001
 -2.1052544e+001
 -1.7052544e+001
 -1.6052544e+001
 -1.7052544e+001
 -1.7052544e+001
 -1.6052544e+001
 -2.0052544e+001
 -1.8052544e+001
 -1.5052544e+001
 -1.7052544e+001
 -1.7052544e+001
 -2.0052544e+001
 -2.2052544e+001
 -2.2052544e+001
 -2.0052544e+001
 -2.0052544e+001
 -1.9052544e+001
 -2.2052544e+001
 -2.2052544e+001
 -2.1052544e+001
 -2.0052544e+001
 -1.7052544e+001
 -1.7052544e+001
 -1.9052544e+001
 -2.2052544e+001
 -1.9052544e+001
 -1.8052544e+001
 -1.6052544e+001
 -1.7052544e+001
 -1.7052544e+001
 -1.8052544e+001
 -1.4052544e+001
 -1.7052544e+001
 -1.5052544e+001
 -1.5052544e+001
 -1.7052544e+001
 -2.0052544e+001
 -1.8052544e+001
 -1.8052544e+001
 -1.9052544e+001
 -2.0052544e+001
 -2.1052544e+001
 -2.1052544e+001
 -2.2052544e+001
 -2.0052544e+001
 -2.0052544e+001
 -1.9052544e+001
 -2.4052544e+001
 -2.3052544e+001
 -2.4052544e+001
 -2.1052544e+001
 -2.1052544e+001
 -2.1052544e+001
 -2.1052544e+001
 -2.2052544e+001
 -2.2052544e+001
 -2.0052544e+001
 -1.6052544e+001
 -1.6052544e+001
 -1.5052544e+001
 -1.2052544e+001
 -9.0525437e+000
 -5.0525437e+000
 -4.0525437e+000
 -3.0525437e+000
 -4.0525437e+000
 -4.0525437e+000
 -2.0525437e+000
 -1.0525437e+000
  1.9474563e+000
  1.9474563e+000
 -5.2543651e-002
  9.4745635e-001
  1.9474563e+000
  2.9474563e+000
  2.9474563e+000
  2.9474563e+000
  9.4745635e-001
  9.4745635e-001
  9.4745635e-001
 -5.2543651e-002
  2.9474563e+000
  1.9474563e+000
 -5.2543651e-002
 -1.0525437e+000
 -2.0525437e+000
  9.4745635e-001
  1.9474563e+000
  1.9474563e+000
 -1.0525437e+000
 -2.0525437e+000
  1.9474563e+000
  9.4745635e-001
  3.9474563e+000
  9.4745635e-001
 -2.0525437e+000
 -3.0525437e+000
 -1.0525437e+000
 -1.0525437e+000
 -1.0525437e+000
 -2.0525437e+000
 -7.0525437e+000
 -7.0525437e+000
 -5.0525437e+000
 -4.0525437e+000
 -3.0525437e+000
 -4.0525437e+000
 -5.0525437e+000
 -9.0525437e+000
 -7.0525437e+000
 -7.0525437e+000
 -8.0525437e+000
 -9.0525437e+000
 -8.0525437e+000
 -1.0052544e+001
 -8.0525437e+000
 -7.0525437e+000
 -5.0525437e+000
 -8.0525437e+000
 -7.0525437e+000
 -1.0052544e+001
 -1.0052544e+001
 -7.0525437e+000
 -8.0525437e+000
 -7.0525437e+000
 -1.1052544e+001
 -1.3052544e+001
 -1.1052544e+001
 -9.0525437e+000
 -1.0052544e+001
 -9.0525437e+000
 -1.0052544e+001
 -1.3052544e+001
 -1.1052544e+001
 -1.0052544e+001
 -7.0525437e+000
 -7.0525437e+000
 -7.0525437e+000
 -1.1052544e+001
 -1.0052544e+001
 -6.0525437e+000
 -6.0525437e+000
 -5.0525437e+000
 -8.0525437e+000
 -1.0052544e+001
 -9.0525437e+000
 -8.0525437e+000
 -8.0525437e+000
 -8.0525437e+000
 -1.2052544e+001
 -1.4052544e+001
 -8.0525437e+000
 -9.0525437e+000
 -8.0525437e+000
 -9.0525437e+000
 -9.0525437e+000
 -1.1052544e+001
 -9.0525437e+000
 -6.0525437e+000
 -8.0525437e+000
 -6.0525437e+000
 -6.0525437e+000
 -6.0525437e+000
 -5.0525437e+000
  9.4745635e-001
  1.9474563e+000
  1.9474563e+000
  9.4745635e-001
  1.9474563e+000
  4.9474563e+000
  5.9474563e+000
  7.9474563e+000
  6.9474563e+000
  6.9474563e+000
  7.9474563e+000
  9.9474563e+000
  1.1947456e+001
  1.3947456e+001
  1.0947456e+001
  9.9474563e+000
  7.9474563e+000
  6.9474563e+000
  9.9474563e+000
  8.9474563e+000
  7.9474563e+000
  6.9474563e+000
  7.9474563e+000
  6.9474563e+000
  7.9474563e+000
  9.9474563e+000
  1.1947456e+001
  1.4947456e+001
  1.0947456e+001
  6.9474563e+000
  9.4745635e-001
  9.4745635e-001
 -6.0525437e+000
 -9.0525437e+000
 -1.3052544e+001
 -1.4052544e+001
 -1.3052544e+001
 -1.1052544e+001
 -1.2052544e+001
 -1.4052544e+001
 -1.5052544e+001
 -1.6052544e+001
 -1.4052544e+001
 -1.4052544e+001
 -1.4052544e+001
 -1.6052544e+001
 -1.8052544e+001
 -1.7052544e+001
 -1.2052544e+001
 -1.2052544e+001
 -1.5052544e+001
 -1.6052544e+001
 -2.0052544e+001
 -1.8052544e+001
 -1.7052544e+001
 -1.5052544e+001
 -1.8052544e+001
 -2.2052544e+001
 -2.9052544e+001
 -3.2052544e+001
 -3.8052544e+001
 -3.9052544e+001
 -4.2052544e+001
 -4.5052544e+001
 -5.7052544e+001
 -6.6052544e+001
 -6.3052544e+001
 -5.2052544e+001
 -3.6052544e+001
 -1.4052544e+001
  8.9474563e+000
  3.9947456e+001
  8.0947456e+001
  1.3694746e+002
  1.8994746e+002
  2.2494746e+002
  2.3494746e+002
  2.1694746e+002
  1.5794746e+002
  7.5947456e+001
  1.9474563e+000
 -3.7052544e+001
 -4.1052544e+001
 -3.2052544e+001
 -1.9052544e+001
 -1.5052544e+001
 -1.5052544e+001
 -1.7052544e+001
 -1.9052544e+001
 -1.8052544e+001
 -1.4052544e+001
 -1.5052544e+001
 -1.6052544e+001
 -1.8052544e+001
 -1.9052544e+001
 -1.8052544e+001
 -1.7052544e+001
 -1.5052544e+001
 -1.6052544e+001
 -1.9052544e+001
 -2.0052544e+001
 -1.9052544e+001
 -1.6052544e+001
 -1.8052544e+001
 -1.9052544e+001
 -1.8052544e+001
 -1.8052544e+001
 -1.9052544e+001
 -1.5052544e+001
 -1.4052544e+001
 -1.5052544e+001
 -1.6052544e+001
 -1.7052544e+001
 -1.7052544e+001
 -1.7052544e+001
 -1.6052544e+001
 -1.6052544e+001
 -1.8052544e+001
 -1.8052544e+001
 -1.7052544e+001
 -1.6052544e+001
 -1.4052544e+001
 -1.2052544e+001
 -1.4052544e+001
 -1.6052544e+001
 -1.5052544e+001
 -1.4052544e+001
 -1.2052544e+001
 -1.4052544e+001
 -1.6052544e+001
 -1.6052544e+001
 -1.4052544e+001
 -1.2052544e+001
 -1.2052544e+001
 -1.4052544e+001
 -1.6052544e+001
 -1.5052544e+001
 -1.5052544e+001
 -1.0052544e+001
 -1.2052544e+001
 -1.4052544e+001
 -1.6052544e+001
 -1.3052544e+001
 -1.4052544e+001
 -1.2052544e+001
 -1.3052544e+001
 -1.5052544e+001
 -1.3052544e+001
 -1.2052544e+001
 -1.2052544e+001
 -1.2052544e+001
 -1.2052544e+001
 -1.3052544e+001
 -1.5052544e+001
 -1.5052544e+001
 -1.0052544e+001
 -1.1052544e+001
 -1.2052544e+001
 -1.4052544e+001
 -1.5052544e+001
 -1.5052544e+001
 -1.2052544e+001
 -1.0052544e+001
 -1.4052544e+001
 -1.3052544e+001
 -1.5052544e+001
 -1.2052544e+001
 -1.2052544e+001
 -1.0052544e+001
 -1.1052544e+001
 -1.4052544e+001
 -1.6052544e+001
 -1.4052544e+001
 -1.4052544e+001
 -1.1052544e+001
 -1.0052544e+001
 -1.1052544e+001
 -1.2052544e+001
 -7.0525437e+000
 -4.0525437e+000
 -1.0525437e+000
 -5.2543651e-002
 -1.0525437e+000
 -2.0525437e+000
 -5.2543651e-002
  3.9474563e+000
  5.9474563e+000
  2.9474563e+000
  3.9474563e+000
  5.9474563e+000
  5.9474563e+000
  6.9474563e+000
  8.9474563e+000
  6.9474563e+000
  4.9474563e+000
  3.9474563e+000
  3.9474563e+000
  4.9474563e+000
  6.9474563e+000
  4.9474563e+000
  3.9474563e+000
  9.4745635e-001
  3.9474563e+000
  5.9474563e+000
  6.9474563e+000
  7.9474563e+000
  3.9474563e+000
  1.9474563e+000
  2.9474563e+000
  3.9474563e+000
  3.9474563e+000
  5.9474563e+000
  2.9474563e+000
  1.9474563e+000
  2.9474563e+000
  3.9474563e+000
  2.9474563e+000
  1.9474563e+000
 -5.2543651e-002
  9.4745635e-001
 -5.2543651e-002
  3.9474563e+000
  2.9474563e+000
  9.4745635e-001
 -3.0525437e+000
 -5.0525437e+000
 -3.0525437e+000
 -1.0525437e+000
 -1.0525437e+000
 -5.2543651e-002
 -2.0525437e+000
 -4.0525437e+000
 -3.0525437e+000
 -5.2543651e-002
 -1.0525437e+000
 -1.0525437e+000
 -3.0525437e+000
 -6.0525437e+000
 -5.0525437e+000
 -4.0525437e+000
 -3.0525437e+000
 -4.0525437e+000
 -6.0525437e+000
 -7.0525437e+000
 -6.0525437e+000
 -5.0525437e+000
 -4.0525437e+000
 -4.0525437e+000
 -3.0525437e+000
 -4.0525437e+000
 -5.0525437e+000
 -4.0525437e+000
 -1.0525437e+000
 -5.0525437e+000
 -5.0525437e+000
 -7.0525437e+000
 -1.0052544e+001
 -9.0525437e+000
 -6.0525437e+000
 -6.0525437e+000
 -7.0525437e+000
 -7.0525437e+000
 -7.0525437e+000
 -5.0525437e+000
 -5.0525437e+000
 -6.0525437e+000
 -6.0525437e+000
 -1.3052544e+001
 -9.0525437e+000
 -9.0525437e+000
 -6.0525437e+000
 -6.0525437e+000
 -7.0525437e+000
 -8.0525437e+000
 -6.0525437e+000
 -3.0525437e+000
 -3.0525437e+000
 -4.0525437e+000
 -4.0525437e+000
 -5.0525437e+000
 -3.0525437e+000
 -1.0525437e+000
  4.9474563e+000
  4.9474563e+000
  2.9474563e+000
  1.9474563e+000
  5.9474563e+000
  6.9474563e+000
  7.9474563e+000
  6.9474563e+000
  7.9474563e+000
  8.9474563e+000
  9.9474563e+000
  1.2947456e+001
  1.6947456e+001
  1.3947456e+001
  1.4947456e+001
  1.1947456e+001
  1.1947456e+001
  1.3947456e+001
  1.5947456e+001
  1.1947456e+001
  9.9474563e+000
  1.0947456e+001
  1.1947456e+001
  8.9474563e+000
  9.9474563e+000
  6.9474563e+000
  1.1947456e+001
  1.2947456e+001
  1.3947456e+001
  9.9474563e+000
  6.9474563e+000
  2.9474563e+000
 -5.2543651e-002
 -2.0525437e+000
 -4.0525437e+000
 -6.0525437e+000
 -3.0525437e+000
 -4.0525437e+000
 -6.0525437e+000
 -9.0525437e+000
 -7.0525437e+000
 -5.0525437e+000
 -4.0525437e+000
 -6.0525437e+000
 -9.0525437e+000
 -1.0052544e+001
 -1.2052544e+001
 -1.1052544e+001
 -1.0052544e+001
 -1.0052544e+001
 -1.3052544e+001
 -1.2052544e+001
 -1.2052544e+001
 -1.0052544e+001
 -1.1052544e+001
 -9.0525437e+000
 -1.1052544e+001
 -1.3052544e+001
 -1.0052544e+001
 -9.0525437e+000
 -7.0525437e+000
 -8.0525437e+000
 -1.1052544e+001
 -1.4052544e+001
 -1.6052544e+001
 -2.3052544e+001
 -2.6052544e+001
 -3.4052544e+001
 -4.0052544e+001
 -5.0052544e+001
 -4.8052544e+001
 -3.2052544e+001
 -8.0525437e+000
  1.8947456e+001
  5.1947456e+001
  9.9947456e+001
  1.5794746e+002
  2.0394746e+002
  2.2694746e+002
  2.1894746e+002
  1.6994746e+002
  9.1947456e+001
  2.2947456e+001
 -2.1052544e+001
 -3.7052544e+001
 -3.3052544e+001
 -2.7052544e+001
 -1.9052544e+001
 -1.7052544e+001
 -1.5052544e+001
 -1.5052544e+001
 -1.7052544e+001
 -1.8052544e+001
 -2.2052544e+001
 -2.2052544e+001
 -1.8052544e+001
 -1.6052544e+001
 -1.8052544e+001
 -1.8052544e+001
 -2.0052544e+001
 -1.8052544e+001
 -1.4052544e+001
 -1.5052544e+001
 -1.6052544e+001
 -1.6052544e+001
 -1.6052544e+001
 -1.6052544e+001
 -1.4052544e+001
 -1.5052544e+001
 -1.5052544e+001
 -1.7052544e+001
 -2.2052544e+001
 -1.9052544e+001
 -1.7052544e+001
 -1.6052544e+001
 -1.7052544e+001
 -1.8052544e+001
 -2.2052544e+001
 -2.0052544e+001
 -1.8052544e+001
 -1.8052544e+001
 -1.8052544e+001
 -1.9052544e+001
 -2.0052544e+001
 -1.8052544e+001
 -2.1052544e+001
 -1.8052544e+001
 -1.9052544e+001
 -1.9052544e+001
 -2.1052544e+001
 -2.0052544e+001
 -1.8052544e+001
 -1.6052544e+001
 -1.6052544e+001
 -1.6052544e+001
 -1.7052544e+001
 -1.6052544e+001
 -1.6052544e+001
 -1.8052544e+001
 -1.8052544e+001
 -2.1052544e+001
 -2.4052544e+001
 -2.0052544e+001
 -1.8052544e+001
 -1.6052544e+001
 -1.5052544e+001
 -2.0052544e+001
 -1.8052544e+001
 -1.8052544e+001
 -1.7052544e+001
 -1.6052544e+001
 -1.6052544e+001
 -1.8052544e+001
 -2.1052544e+001
 -2.0052544e+001
 -1.7052544e+001
 -1.6052544e+001
 -1.7052544e+001
 -1.8052544e+001
 -2.2052544e+001
 -2.2052544e+001
 -2.2052544e+001
 -2.1052544e+001
 -2.2052544e+001
 -2.7052544e+001
 -2.6052544e+001
 -2.7052544e+001
 -2.4052544e+001
 -2.6052544e+001
 -3.1052544e+001
 -2.8052544e+001
 -2.9052544e+001
 -2.5052544e+001
 -2.4052544e+001
 -2.2052544e+001
 -2.3052544e+001
 -2.6052544e+001
 -2.7052544e+001
 -2.6052544e+001
 -2.3052544e+001
 -2.1052544e+001
 -1.9052544e+001
 -2.2052544e+001
 -2.1052544e+001
 -1.8052544e+001
 -1.3052544e+001
 -1.1052544e+001
 -1.0052544e+001
 -1.0052544e+001
 -1.0052544e+001
 -6.0525437e+000
 -3.0525437e+000
 -5.2543651e-002
  1.9474563e+000
  1.9474563e+000
 -1.0525437e+000
  9.4745635e-001
  9.4745635e-001
  1.9474563e+000
  9.4745635e-001
 -5.2543651e-002
 -1.0525437e+000
 -5.2543651e-002
  1.9474563e+000
  1.9474563e+000
  3.9474563e+000
  9.4745635e-001
 -1.0525437e+000
  9.4745635e-001
 -5.2543651e-002
  3.9474563e+000
  2.9474563e+000
  1.9474563e+000
  2.9474563e+000
  5.9474563e+000
  6.9474563e+000
  4.9474563e+000
  3.9474563e+000
  1.9474563e+000
 -2.0525437e+000
  1.9474563e+000
  2.9474563e+000
  2.9474563e+000
 -5.2543651e-002
 -2.0525437e+000
 -4.0525437e+000
 -2.0525437e+000
 -5.2543651e-002
 -1.0525437e+000
 -4.0525437e+000
 -3.0525437e+000
 -5.0525437e+000
 -2.0525437e+000
 -2.0525437e+000
 -1.0525437e+000
 -5.2543651e-002
 -4.0525437e+000
 -4.0525437e+000
 -6.0525437e+000
 -4.0525437e+000
 -2.0525437e+000
 -3.0525437e+000
 -5.2543651e-002
 -4.0525437e+000
 -3.0525437e+000
 -3.0525437e+000
 -3.0525437e+000
 -3.0525437e+000
 -4.0525437e+000
 -5.0525437e+000
 -3.0525437e+000
 -1.0525437e+000
 -5.2543651e-002
 -2.0525437e+000
 -4.0525437e+000
 -8.0525437e+000
 -6.0525437e+000
 -5.0525437e+000
 -4.0525437e+000
 -1.0525437e+000
 -2.0525437e+000
 -7.0525437e+000
 -3.0525437e+000
 -5.2543651e-002
 -5.2543651e-002
 -3.0525437e+000
 -3.0525437e+000
 -4.0525437e+000
 -4.0525437e+000
 -3.0525437e+000
 -3.0525437e+000
 -3.0525437e+000
 -5.0525437e+000
 -5.0525437e+000
 -5.0525437e+000
 -2.0525437e+000
 -2.0525437e+000
 -2.0525437e+000
 -6.0525437e+000
 -7.0525437e+000
 -5.0525437e+000
 -3.0525437e+000
 -1.0525437e+000
  9.4745635e-001
  1.9474563e+000
  1.9474563e+000
  7.9474563e+000
  8.9474563e+000
  1.1947456e+001
  1.0947456e+001
  9.9474563e+000
  1.0947456e+001
  1.2947456e+001
  1.5947456e+001
  1.5947456e+001
  1.8947456e+001
  1.5947456e+001
  1.5947456e+001
  1.8947456e+001
  1.6947456e+001
  1.7947456e+001
  1.5947456e+001
  1.3947456e+001
  1.1947456e+001
  1.4947456e+001
  1.6947456e+001
  1.6947456e+001
  1.2947456e+001
  1.1947456e+001
  1.2947456e+001
  1.6947456e+001
  2.1947456e+001
  2.3947456e+001
  2.0947456e+001
  1.6947456e+001
  8.9474563e+000
  8.9474563e+000
  5.9474563e+000
  5.9474563e+000
  9.4745635e-001
 -3.0525437e+000
 -5.0525437e+000
 -5.0525437e+000
 -6.0525437e+000
 -7.0525437e+000
 -7.0525437e+000
 -5.0525437e+000
 -8.0525437e+000
 -6.0525437e+000
 -5.0525437e+000
 -5.0525437e+000
 -6.0525437e+000
 -8.0525437e+000
 -1.1052544e+001
 -8.0525437e+000
 -1.1052544e+001
 -6.0525437e+000
 -5.0525437e+000
 -9.0525437e+000
 -1.3052544e+001
 -9.0525437e+000
 -6.0525437e+000
 -7.0525437e+000
 -7.0525437e+000
 -8.0525437e+000
 -1.3052544e+001
 -1.5052544e+001
 -1.6052544e+001
 -2.2052544e+001
 -2.8052544e+001
 -3.2052544e+001
 -3.9052544e+001
 -4.6052544e+001
 -4.5052544e+001
 -3.6052544e+001
 -1.8052544e+001
  3.9474563e+000
  3.0947456e+001
  7.0947456e+001
  1.2594746e+002
  1.8194746e+002
  2.2294746e+002
  2.3994746e+002
  2.2194746e+002
  1.6694746e+002
  8.8947456e+001
  1.9947456e+001
 -2.2052544e+001
 -3.7052544e+001
 -3.5052544e+001
 -2.7052544e+001
 -1.7052544e+001
 -1.5052544e+001
 -1.6052544e+001
 -1.6052544e+001
 -1.7052544e+001
 -1.5052544e+001
 -1.3052544e+001
 -1.4052544e+001
 -1.4052544e+001
 -1.7052544e+001
 -1.9052544e+001
 -1.9052544e+001
 -1.5052544e+001
 -1.5052544e+001
 -1.8052544e+001
 -1.8052544e+001
 -2.0052544e+001
 -1.9052544e+001
 -1.6052544e+001
 -1.6052544e+001
 -1.7052544e+001
 -2.0052544e+001
 -2.0052544e+001
 -2.0052544e+001
 -1.7052544e+001
 -1.5052544e+001
 -1.5052544e+001
 -1.9052544e+001
 -2.0052544e+001
 -1.8052544e+001
 -1.6052544e+001
 -1.6052544e+001
 -1.6052544e+001
 -1.8052544e+001
 -1.9052544e+001
 -1.9052544e+001
 -1.7052544e+001
 -1.5052544e+001
 -1.6052544e+001
 -1.9052544e+001
 -2.2052544e+001
 -2.0052544e+001
 -1.8052544e+001
 -1.9052544e+001
 -1.8052544e+001
 -2.0052544e+001
 -2.2052544e+001
 -2.2052544e+001
 -1.9052544e+001
 -1.6052544e+001
 -1.5052544e+001
 -1.7052544e+001
 -1.9052544e+001
 -1.9052544e+001
 -1.7052544e+001
 -1.5052544e+001
 -1.9052544e+001
 -2.1052544e+001
 -2.1052544e+001
 -2.0052544e+001
 -2.0052544e+001
 -1.8052544e+001
 -2.1052544e+001
 -2.0052544e+001
 -2.2052544e+001
 -1.9052544e+001
 -1.7052544e+001
 -1.8052544e+001
 -1.7052544e+001
 -1.7052544e+001
 -1.9052544e+001
 -1.7052544e+001
 -1.6052544e+001
 -1.6052544e+001
 -1.8052544e+001
 -1.9052544e+001
 -2.2052544e+001
 -2.2052544e+001
 -1.9052544e+001
 -1.9052544e+001
 -2.1052544e+001
 -2.3052544e+001
 -2.6052544e+001
 -2.5052544e+001
 -2.4052544e+001
 -2.3052544e+001
 -2.3052544e+001
 -2.7052544e+001
 -2.6052544e+001
 -2.6052544e+001
 -2.4052544e+001
 -2.4052544e+001
 -2.6052544e+001
 -2.5052544e+001
 -2.7052544e+001
 -2.3052544e+001
 -2.3052544e+001
 -2.0052544e+001
 -1.7052544e+001
 -1.7052544e+001
 -1.4052544e+001
 -1.0052544e+001
 -4.0525437e+000
 -3.0525437e+000
 -2.0525437e+000
 -3.0525437e+000
 -3.0525437e+000
  9.4745635e-001
  3.9474563e+000
  5.9474563e+000
  4.9474563e+000
  4.9474563e+000
  9.4745635e-001
  3.9474563e+000
  5.9474563e+000
  6.9474563e+000
  2.9474563e+000
  4.9474563e+000
  3.9474563e+000
  4.9474563e+000
  6.9474563e+000
  7.9474563e+000
  7.9474563e+000
  4.9474563e+000
  4.9474563e+000
  5.9474563e+000
  8.9474563e+000
  8.9474563e+000
  8.9474563e+000
  7.9474563e+000
  4.9474563e+000
  5.9474563e+000
  7.9474563e+000
  7.9474563e+000
  4.9474563e+000
  3.9474563e+000
  1.9474563e+000
  3.9474563e+000
  3.9474563e+000
  5.9474563e+000
  4.9474563e+000
  2.9474563e+000
  1.9474563e+000
  9.4745635e-001
  3.9474563e+000
  2.9474563e+000
  1.9474563e+000
  9.4745635e-001
 -2.0525437e+000
 -2.0525437e+000
 -5.2543651e-002
  9.4745635e-001
 -5.2543651e-002
 -5.2543651e-002
 -2.0525437e+000
 -1.0525437e+000
  9.4745635e-001
 -1.0525437e+000
 -5.2543651e-002
 -3.0525437e+000
 -3.0525437e+000
 -1.0525437e+000
  9.4745635e-001
  9.4745635e-001
  9.4745635e-001
 -3.0525437e+000
 -4.0525437e+000
 -3.0525437e+000
 -1.0525437e+000
 -2.0525437e+000
 -2.0525437e+000
 -3.0525437e+000
 -4.0525437e+000
 -3.0525437e+000
 -2.0525437e+000
 -2.0525437e+000
 -1.0525437e+000
 -2.0525437e+000
 -3.0525437e+000
 -2.0525437e+000
 -5.2543651e-002
  1.9474563e+000
 -2.0525437e+000
 -5.2543651e-002
 -4.0525437e+000
 -3.0525437e+000
  9.4745635e-001
 -1.0525437e+000
 -3.0525437e+000
 -3.0525437e+000
 -4.0525437e+000
 -3.0525437e+000
 -3.0525437e+000
 -1.0525437e+000
 -1.0525437e+000
 -3.0525437e+000
 -3.0525437e+000
 -2.0525437e+000
 -5.2543651e-002
 -5.2543651e-002
 -5.2543651e-002
 -3.0525437e+000
 -3.0525437e+000
 -1.0525437e+000
 -5.2543651e-002
  1.9474563e+000
  1.9474563e+000
  3.9474563e+000
 -5.2543651e-002
  2.9474563e+000
  7.9474563e+000
  1.1947456e+001
  1.1947456e+001
  1.0947456e+001
  9.9474563e+000
  1.1947456e+001
  1.5947456e+001
  1.6947456e+001
  1.7947456e+001
  1.8947456e+001
  1.8947456e+001
  1.9947456e+001
  2.2947456e+001
  2.1947456e+001
  2.1947456e+001
  1.7947456e+001
  1.5947456e+001
  1.4947456e+001
  1.6947456e+001
  1.9947456e+001
  1.4947456e+001
  1.4947456e+001
  1.2947456e+001
  1.5947456e+001
  2.0947456e+001
  2.2947456e+001
  1.8947456e+001
  1.1947456e+001
  7.9474563e+000
  5.9474563e+000
  2.9474563e+000
  1.9474563e+000
 -1.0525437e+000
 -3.0525437e+000
 -2.0525437e+000
 -1.0525437e+000
 -3.0525437e+000
 -3.0525437e+000
 -4.0525437e+000
 -5.0525437e+000
 -6.0525437e+000
 -5.0525437e+000
 -4.0525437e+000
 -1.0525437e+000
 -2.0525437e+000
 -4.0525437e+000
 -6.0525437e+000
 -6.0525437e+000
 -6.0525437e+000
 -4.0525437e+000
 -5.0525437e+000
 -6.0525437e+000
 -8.0525437e+000
 -5.0525437e+000
 -5.0525437e+000
 -5.0525437e+000
 -5.0525437e+000
 -6.0525437e+000
 -8.0525437e+000
 -1.0052544e+001
 -1.1052544e+001
 -1.8052544e+001
 -2.6052544e+001
 -3.3052544e+001
 -3.6052544e+001
 -4.1052544e+001
 -4.4052544e+001
 -3.8052544e+001
 -2.0052544e+001
  6.9474563e+000
  3.5947456e+001
  7.5947456e+001
  1.2294746e+002
  1.7894746e+002
  2.2494746e+002
  2.5194746e+002
  2.4694746e+002
  2.1794746e+002
  1.5194746e+002
  6.6947456e+001
  3.9474563e+000
 -2.6052544e+001
 -3.1052544e+001
 -2.2052544e+001
 -1.3052544e+001
 -9.0525437e+000
 -9.0525437e+000
 -1.1052544e+001
 -1.3052544e+001
 -1.3052544e+001
 -1.2052544e+001
 -1.1052544e+001
 -1.0052544e+001
 -1.1052544e+001
 -1.4052544e+001
 -1.4052544e+001
 -1.2052544e+001
 -1.1052544e+001
 -1.1052544e+001
 -1.4052544e+001
 -1.6052544e+001
 -1.4052544e+001
 -1.4052544e+001
 -1.5052544e+001
 -1.4052544e+001
 -1.6052544e+001
 -1.9052544e+001
 -1.7052544e+001
 -1.6052544e+001
 -1.3052544e+001
 -1.6052544e+001
 -1.6052544e+001
 -1.7052544e+001
 -1.7052544e+001
 -1.6052544e+001
 -1.5052544e+001
 -1.5052544e+001
 -1.6052544e+001
 -1.8052544e+001
 -1.5052544e+001
 -1.4052544e+001
 -1.2052544e+001
 -1.2052544e+001
 -1.3052544e+001
 -1.5052544e+001
 -1.4052544e+001
 -1.1052544e+001
 -1.1052544e+001
 -1.1052544e+001
 -1.2052544e+001
 -1.4052544e+001
 -1.1052544e+001
 -1.5052544e+001
 -1.2052544e+001
 -1.1052544e+001
 -1.3052544e+001
 -1.5052544e+001
 -1.5052544e+001
 -1.4052544e+001
 -1.2052544e+001
 -1.2052544e+001
 -1.4052544e+001
 -1.6052544e+001
 -1.5052544e+001
 -1.4052544e+001
 -1.2052544e+001
 -1.3052544e+001
 -1.4052544e+001
 -1.5052544e+001
 -1.3052544e+001
 -1.3052544e+001
 -1.1052544e+001
 -1.1052544e+001
 -1.0052544e+001
 -1.5052544e+001
 -1.0052544e+001
 -1.0052544e+001
 -9.0525437e+000
 -1.2052544e+001
 -1.3052544e+001
 -1.7052544e+001
 -1.5052544e+001
 -1.2052544e+001
 -1.2052544e+001
 -1.1052544e+001
 -1.4052544e+001
 -1.5052544e+001
 -1.5052544e+001
 -1.5052544e+001
 -1.5052544e+001
 -1.2052544e+001
 -1.4052544e+001
 -1.6052544e+001
 -1.3052544e+001
 -1.1052544e+001
 -1.2052544e+001
 -1.2052544e+001
 -1.5052544e+001
 -1.8052544e+001
 -1.2052544e+001
 -1.1052544e+001
 -9.0525437e+000
 -1.2052544e+001
 -1.4052544e+001
 -1.3052544e+001
 -1.1052544e+001
 -9.0525437e+000
 -6.0525437e+000
 -6.0525437e+000
 -3.0525437e+000
 -3.0525437e+000
 -5.2543651e-002
  9.4745635e-001
  3.9474563e+000
  5.9474563e+000
  5.9474563e+000
  3.9474563e+000
  6.9474563e+000
  8.9474563e+000
  6.9474563e+000
  6.9474563e+000
  6.9474563e+000
  4.9474563e+000
  4.9474563e+000
  6.9474563e+000
  7.9474563e+000
  6.9474563e+000
  5.9474563e+000
  4.9474563e+000
  4.9474563e+000
  6.9474563e+000
  6.9474563e+000
  5.9474563e+000
  4.9474563e+000
  2.9474563e+000
  3.9474563e+000
  5.9474563e+000
  6.9474563e+000
  5.9474563e+000
  5.9474563e+000
  3.9474563e+000
  5.9474563e+000
  6.9474563e+000
  7.9474563e+000
  6.9474563e+000
  4.9474563e+000
  9.4745635e-001
  1.9474563e+000
  5.9474563e+000
  8.9474563e+000
  8.9474563e+000
  7.9474563e+000
  5.9474563e+000
  5.9474563e+000
  8.9474563e+000
  9.9474563e+000
  9.9474563e+000
  9.9474563e+000
  6.9474563e+000
  9.9474563e+000
  1.3947456e+001
  1.5947456e+001
  1.5947456e+001
  1.2947456e+001
  1.2947456e+001
  1.3947456e+001
  1.9947456e+001
  1.8947456e+001
  1.3947456e+001
  1.1947456e+001
  1.6947456e+001
  2.1947456e+001
  2.0947456e+001
  1.8947456e+001
  1.6947456e+001
  1.4947456e+001
  1.4947456e+001
  1.3947456e+001
  1.2947456e+001
  8.9474563e+000
  5.9474563e+000
 -5.2543651e-002
 -1.0525437e+000
 -1.0525437e+000
  9.4745635e-001
 -3.0525437e+000
